Time[ms], Volt[V], Angle[degree], AngleVel[rad/s]
5, 0.000, 232.383, 0.218
10, 0.000, 232.295, 0.226
15, 0.000, 232.295, 0.206
20, 0.000, 232.295, 0.187
25, 0.000, 232.295, 0.170
30, 0.001, 232.295, 0.155
35, 0.001, 232.295, 0.141
40, 0.001, 232.295, 0.128
45, 0.002, 232.295, 0.116
50, 0.002, 232.295, 0.106
55, 0.003, 232.295, 0.096
60, 0.004, 232.295, 0.087
65, 0.004, 232.295, 0.079
70, 0.005, 232.295, 0.072
75, 0.006, 232.295, 0.066
80, 0.007, 232.295, 0.060
85, 0.008, 232.295, 0.054
90, 0.009, 232.295, 0.049
95, 0.010, 232.207, 0.073
100, 0.011, 232.295, 0.038
105, 0.012, 232.295, 0.035
110, 0.013, 232.295, 0.032
115, 0.014, 232.295, 0.029
120, 0.016, 232.295, 0.026
125, 0.017, 232.295, 0.024
130, 0.018, 232.295, 0.022
135, 0.020, 232.207, 0.048
140, 0.022, 232.383, -0.013
145, 0.023, 232.383, -0.011
150, 0.025, 232.295, 0.017
155, 0.027, 232.383, -0.012
160, 0.028, 232.207, 0.045
165, 0.030, 232.295, 0.013
170, 0.032, 232.295, 0.012
175, 0.034, 232.295, 0.011
180, 0.036, 232.383, -0.018
185, 0.038, 232.295, 0.011
190, 0.040, 232.295, 0.010
195, 0.043, 232.207, 0.037
200, 0.045, 232.295, 0.006
205, 0.047, 232.383, -0.022
210, 0.050, 232.207, 0.035
215, 0.052, 232.295, 0.004
220, 0.055, 232.295, 0.004
225, 0.057, 232.383, -0.024
230, 0.060, 232.383, -0.022
235, 0.063, 232.295, 0.008
240, 0.065, 232.295, 0.007
245, 0.068, 232.207, 0.034
250, 0.071, 232.295, 0.003
255, 0.074, 232.295, 0.003
260, 0.077, 232.295, 0.003
265, 0.080, 232.295, 0.002
270, 0.083, 232.383, -0.026
275, 0.086, 232.295, 0.005
280, 0.089, 232.383, -0.024
285, 0.093, 232.295, 0.006
290, 0.096, 232.295, 0.006
295, 0.099, 232.383, -0.023
300, 0.103, 232.295, 0.007
305, 0.106, 232.295, 0.007
310, 0.110, 232.383, -0.022
315, 0.113, 232.295, 0.008
320, 0.117, 232.295, 0.007
325, 0.121, 232.207, 0.034
330, 0.125, 232.295, 0.003
335, 0.129, 232.295, 0.003
340, 0.132, 232.295, 0.003
345, 0.136, 232.295, 0.003
350, 0.140, 232.295, 0.002
355, 0.144, 232.207, 0.030
360, 0.149, 232.295, -0.001
365, 0.153, 232.383, -0.028
370, 0.157, 232.295, 0.002
375, 0.161, 232.207, 0.030
380, 0.166, 232.383, -0.029
385, 0.170, 232.295, 0.002
390, 0.175, 232.295, 0.002
395, 0.179, 232.295, 0.001
400, 0.184, 232.295, 0.001
405, 0.189, 232.383, -0.027
410, 0.193, 232.207, 0.031
415, 0.198, 232.295, 0.001
420, 0.203, 232.295, 0.001
425, 0.208, 232.295, 0.001
430, 0.213, 232.383, -0.027
435, 0.218, 232.383, -0.025
440, 0.223, 232.207, 0.033
445, 0.228, 232.295, 0.002
450, 0.233, 232.295, 0.002
455, 0.238, 232.295, 0.002
460, 0.244, 232.295, 0.002
465, 0.249, 232.383, -0.026
470, 0.254, 232.207, 0.032
475, 0.260, 232.295, 0.001
480, 0.265, 232.383, -0.027
485, 0.271, 232.295, 0.003
490, 0.276, 232.295, 0.003
495, 0.282, 232.295, 0.003
500, 0.288, 232.383, -0.025
505, 0.294, 232.295, 0.005
510, 0.300, 232.295, 0.004
515, 0.305, 232.295, 0.004
520, 0.311, 232.295, 0.004
525, 0.317, 232.295, 0.003
530, 0.323, 232.295, 0.003
535, 0.330, 232.295, 0.003
540, 0.336, 232.383, -0.025
545, 0.342, 232.295, 0.005
550, 0.348, 232.383, -0.024
555, 0.355, 232.383, -0.021
560, 0.361, 232.295, 0.008
565, 0.368, 232.295, 0.008
570, 0.374, 232.383, -0.021
575, 0.381, 232.295, 0.009
580, 0.387, 232.295, 0.008
585, 0.394, 232.383, -0.021
590, 0.401, 232.295, 0.009
595, 0.408, 232.295, 0.008
600, 0.414, 232.383, -0.020
605, 0.421, 232.295, 0.009
610, 0.428, 232.383, -0.019
615, 0.435, 232.295, 0.010
620, 0.442, 232.295, 0.009
625, 0.450, 232.207, 0.036
630, 0.457, 232.383, -0.023
635, 0.464, 232.295, 0.007
640, 0.471, 232.207, 0.035
645, 0.479, 232.295, 0.003
650, 0.486, 232.295, 0.003
655, 0.493, 232.383, -0.025
660, 0.501, 232.295, 0.005
665, 0.509, 232.295, 0.005
670, 0.516, 232.383, -0.024
675, 0.524, 232.383, -0.022
680, 0.532, 232.295, 0.008
685, 0.539, 232.295, 0.008
690, 0.547, 232.295, 0.007
695, 0.555, 232.295, 0.006
700, 0.563, 232.295, 0.006
705, 0.571, 232.383, -0.023
710, 0.579, 232.295, 0.007
715, 0.587, 232.295, 0.007
720, 0.595, 232.295, 0.006
725, 0.604, 232.295, 0.005
730, 0.612, 232.383, -0.023
735, 0.620, 232.295, 0.007
740, 0.629, 232.295, 0.006
745, 0.637, 232.383, -0.022
750, 0.645, 232.383, -0.020
755, 0.654, 232.295, 0.010
760, 0.663, 232.295, 0.009
765, 0.671, 232.295, 0.008
770, 0.680, 232.383, -0.021
775, 0.689, 232.207, 0.037
780, 0.697, 232.295, 0.006
785, 0.706, 232.207, 0.033
790, 0.715, 232.295, 0.002
795, 0.724, 232.295, 0.002
800, 0.733, 232.383, -0.026
805, 0.742, 232.207, 0.032
810, 0.751, 232.383, -0.027
815, 0.760, 232.295, 0.004
820, 0.770, 232.295, 0.003
825, 0.779, 232.383, -0.025
830, 0.788, 232.295, 0.005
835, 0.798, 232.383, -0.023
840, 0.807, 232.295, 0.007
845, 0.816, 232.383, -0.022
850, 0.826, 232.383, -0.020
855, 0.836, 232.295, 0.010
860, 0.845, 232.383, -0.019
865, 0.855, 232.295, 0.011
870, 0.865, 232.471, -0.046
875, 0.874, 232.383, -0.014
880, 0.884, 232.383, -0.013
885, 0.894, 232.471, -0.039
890, 0.904, 232.559, -0.064
895, 0.914, 232.646, -0.086
900, 0.924, 232.822, -0.134
905, 0.934, 232.998, -0.177
910, 0.944, 233.174, -0.217
915, 0.954, 233.438, -0.281
920, 0.965, 233.613, -0.311
925, 0.975, 233.965, -0.395
930, 0.985, 234.053, -0.387
935, 0.996, 234.404, -0.463
940, 1.006, 234.844, -0.560
945, 1.016, 235.107, -0.593
950, 1.027, 235.459, -0.651
955, 1.038, 235.811, -0.703
960, 1.048, 236.250, -0.779
965, 1.059, 236.602, -0.820
970, 1.070, 236.953, -0.857
975, 1.080, 237.393, -0.918
980, 1.091, 237.832, -0.974
985, 1.102, 238.096, -0.970
990, 1.113, 238.535, -1.021
995, 1.124, 239.150, -1.123
1000, 1.135, 239.414, -1.105
1005, 1.146, 239.941, -1.172
1010, 1.157, 240.293, -1.177
1015, 1.168, 240.820, -1.237
1020, 1.179, 241.348, -1.292
1025, 1.191, 241.787, -1.314
1030, 1.202, 242.227, -1.335
1035, 1.213, 242.754, -1.381
1040, 1.225, 243.193, -1.394
1045, 1.236, 243.721, -1.435
1050, 1.248, 244.248, -1.472
1055, 1.259, 244.688, -1.478
1060, 1.271, 245.303, -1.539
1065, 1.282, 245.830, -1.567
1070, 1.294, 246.270, -1.564
1075, 1.306, 246.797, -1.589
1080, 1.317, 247.236, -1.584
1085, 1.329, 247.764, -1.607
1090, 1.341, 248.379, -1.657
1095, 1.353, 248.906, -1.673
1100, 1.365, 249.434, -1.689
1105, 1.377, 249.961, -1.703
1110, 1.389, 250.488, -1.715
1115, 1.401, 251.016, -1.727
1120, 1.413, 251.631, -1.765
1125, 1.425, 252.070, -1.744
1130, 1.438, 252.686, -1.781
1135, 1.450, 253.213, -1.786
1140, 1.462, 253.828, -1.819
1145, 1.474, 254.443, -1.849
1150, 1.487, 254.971, -1.849
1155, 1.499, 255.410, -1.820
1160, 1.512, 256.025, -1.850
1165, 1.524, 256.641, -1.877
1170, 1.537, 257.168, -1.874
1175, 1.550, 257.783, -1.899
1180, 1.562, 258.311, -1.893
1185, 1.575, 258.838, -1.889
1190, 1.588, 259.453, -1.912
1195, 1.600, 260.068, -1.934
1200, 1.613, 260.508, -1.897
1205, 1.626, 261.211, -1.948
1210, 1.639, 261.826, -1.966
1215, 1.652, 262.441, -1.983
1220, 1.665, 262.969, -1.970
1225, 1.678, 263.760, -2.042
1230, 1.691, 264.287, -2.024
1235, 1.704, 264.814, -2.007
1240, 1.718, 265.518, -2.048
1245, 1.731, 266.309, -2.113
1250, 1.744, 266.924, -2.116
1255, 1.757, 267.539, -2.119
1260, 1.771, 268.242, -2.150
1265, 1.784, 268.857, -2.150
1270, 1.798, 269.561, -2.178
1275, 1.811, 270.352, -2.231
1280, 1.825, 271.055, -2.251
1285, 1.838, 271.758, -2.270
1290, 1.852, 272.549, -2.314
1295, 1.865, 273.340, -2.355
1300, 1.879, 274.131, -2.392
1305, 1.893, 274.922, -2.426
1310, 1.906, 275.801, -2.484
1315, 1.920, 276.592, -2.510
1320, 1.934, 277.471, -2.561
1325, 1.948, 278.262, -2.579
1330, 1.962, 279.229, -2.651
1335, 1.976, 280.020, -2.661
1340, 1.990, 280.986, -2.727
1345, 2.004, 281.953, -2.786
1350, 2.018, 282.832, -2.811
1355, 2.032, 283.975, -2.918
1360, 2.046, 284.941, -2.960
1365, 2.060, 285.908, -2.998
1370, 2.075, 286.963, -3.060
1375, 2.089, 288.105, -3.144
1380, 2.103, 289.160, -3.194
1385, 2.118, 290.391, -3.293
1390, 2.132, 291.709, -3.413
1395, 2.146, 292.852, -3.465
1400, 2.161, 293.994, -3.513
1405, 2.175, 295.312, -3.612
1410, 2.190, 296.631, -3.702
1415, 2.205, 297.773, -3.728
1420, 2.219, 299.268, -3.863
1425, 2.234, 300.586, -3.931
1430, 2.249, 301.992, -4.020
1435, 2.263, 303.311, -4.072
1440, 2.278, 304.893, -4.205
1445, 2.293, 306.211, -4.241
1450, 2.308, 307.705, -4.331
1455, 2.323, 309.199, -4.411
1460, 2.337, 310.781, -4.512
1465, 2.352, 312.363, -4.604
1470, 2.367, 313.945, -4.688
1475, 2.382, 315.527, -4.764
1480, 2.397, 317.285, -4.889
1485, 2.413, 318.955, -4.975
1490, 2.428, 320.625, -5.053
1495, 2.443, 322.383, -5.151
1500, 2.458, 324.229, -5.269
1505, 2.473, 325.898, -5.321
1510, 2.489, 327.832, -5.450
1515, 2.504, 329.590, -5.513
1520, 2.519, 331.523, -5.626
1525, 2.535, 333.369, -5.700
1530, 2.550, 335.303, -5.796
1535, 2.565, 337.236, -5.883
1540, 2.581, 339.170, -5.962
1545, 2.596, 341.016, -6.006
1550, 2.612, 343.213, -6.158
1555, 2.627, 345.146, -6.212
1560, 2.643, 347.256, -6.316
1565, 2.659, 349.365, -6.412
1570, 2.674, 351.387, -6.470
1575, 2.690, 353.672, -6.608
1580, 2.706, 355.605, -6.621
1585, 2.722, 357.803, -6.717
1590, 2.737, 0.000, -6.804
1595, 2.753, 2.285, -6.910
1600, 2.769, 4.395, -6.952
1605, 2.785, 6.504, -6.990
1610, 2.801, 8.789, -7.080
1615, 2.817, 11.074, -7.162
1620, 2.833, 13.271, -7.209
1625, 2.849, 15.469, -7.253
1630, 2.865, 17.754, -7.320
1635, 2.881, 19.863, -7.324
1640, 2.897, 22.148, -7.384
1645, 2.913, 24.258, -7.383
1650, 2.930, 26.367, -7.380
1655, 2.946, 28.740, -7.463
1660, 2.962, 30.762, -7.426
1665, 2.978, 32.959, -7.450
1670, 2.995, 35.156, -7.470
1675, 3.011, 37.354, -7.488
1680, 3.027, 39.551, -7.505
1685, 3.044, 41.660, -7.492
1690, 3.060, 43.857, -7.509
1695, 3.076, 45.879, -7.467
1700, 3.093, 47.988, -7.459
1705, 3.109, 50.098, -7.450
1710, 3.126, 52.119, -7.415
1715, 3.143, 54.141, -7.382
1720, 3.159, 56.338, -7.409
1725, 3.176, 58.359, -7.378
1730, 3.192, 60.293, -7.320
1735, 3.209, 62.314, -7.297
1740, 3.226, 64.336, -7.275
1745, 3.243, 66.357, -7.255
1750, 3.259, 68.291, -7.210
1755, 3.276, 70.225, -7.168
1760, 3.293, 72.158, -7.131
1765, 3.310, 74.092, -7.096
1770, 3.327, 75.938, -7.038
1775, 3.343, 77.871, -7.009
1780, 3.360, 79.893, -7.015
1785, 3.377, 81.650, -6.936
1790, 3.394, 83.672, -6.948
1795, 3.411, 85.430, -6.874
1800, 3.428, 87.363, -6.863
1805, 3.445, 89.297, -6.851
1810, 3.462, 91.143, -6.816
1815, 3.479, 93.076, -6.811
1820, 3.497, 95.010, -6.805
1825, 3.514, 96.768, -6.745
1830, 3.531, 98.701, -6.746
1835, 3.548, 100.635, -6.746
1840, 3.565, 102.480, -6.719
1845, 3.583, 104.414, -6.722
1850, 3.600, 106.260, -6.697
1855, 3.617, 108.281, -6.730
1860, 3.634, 110.303, -6.759
1865, 3.652, 112.148, -6.731
1870, 3.669, 113.994, -6.706
1875, 3.686, 116.191, -6.794
1880, 3.704, 118.125, -6.790
1885, 3.721, 120.146, -6.814
1890, 3.739, 122.256, -6.864
1895, 3.756, 124.277, -6.882
1900, 3.774, 126.475, -6.954
1905, 3.791, 128.496, -6.964
1910, 3.809, 130.869, -7.084
1915, 3.826, 132.979, -7.110
1920, 3.844, 135.352, -7.217
1925, 3.862, 137.549, -7.259
1930, 3.879, 139.922, -7.351
1935, 3.897, 142.207, -7.409
1940, 3.914, 144.668, -7.516
1945, 3.932, 147.129, -7.615
1950, 3.950, 149.678, -7.731
1955, 3.968, 152.139, -7.810
1960, 3.985, 154.688, -7.909
1965, 4.003, 157.412, -8.054
1970, 4.021, 160.049, -8.161
1975, 4.039, 162.686, -8.255
1980, 4.056, 165.410, -8.371
1985, 4.074, 168.311, -8.530
1990, 4.092, 171.211, -8.674
1995, 4.110, 174.111, -8.809
2000, 4.128, 176.924, -8.900
2005, 4.146, 179.824, -9.012
2010, 4.164, 182.900, -9.169
2015, 4.182, 185.977, -9.312
2020, 4.200, 188.965, -9.414
2025, 4.218, 191.865, -9.480
2030, 4.236, 194.941, -9.595
2035, 4.254, 198.018, -9.699
2040, 4.272, 201.006, -9.767
2045, 4.290, 204.082, -9.855
2050, 4.308, 207.070, -9.908
2055, 4.326, 210.234, -10.011
2060, 4.344, 213.311, -10.078
2065, 4.362, 216.387, -10.138
2070, 4.380, 219.287, -10.137
2075, 4.399, 222.451, -10.221
2080, 4.417, 225.352, -10.212
2085, 4.435, 228.164, -10.177
2090, 4.453, 231.328, -10.256
2095, 4.471, 234.053, -10.188
2100, 4.490, 236.953, -10.183
2105, 4.508, 239.854, -10.178
2110, 4.526, 242.578, -10.118
2115, 4.544, 245.303, -10.062
2120, 4.563, 248.115, -10.042
2125, 4.581, 250.840, -9.993
2130, 4.599, 253.564, -9.951
2135, 4.618, 256.377, -9.938
2140, 4.636, 259.014, -9.872
2145, 4.654, 261.738, -9.839
2150, 4.673, 264.287, -9.754
2155, 4.691, 266.836, -9.678
2160, 4.710, 269.473, -9.634
2165, 4.728, 272.197, -9.624
2170, 4.746, 274.746, -9.559
2175, 4.765, 277.295, -9.497
2180, 4.783, 279.932, -9.473
2185, 4.802, 282.480, -9.421
2190, 4.820, 285.117, -9.402
2195, 4.839, 287.754, -9.384
2200, 4.857, 290.391, -9.368
2205, 4.876, 293.027, -9.353
2210, 4.894, 295.752, -9.368
2215, 4.913, 298.389, -9.353
2220, 4.931, 301.201, -9.397
2225, 4.950, 303.838, -9.380
2230, 4.968, 306.738, -9.448
2235, 4.987, 309.375, -9.426
2240, 5.006, 312.451, -9.545
2245, 5.024, 315.352, -9.599
2250, 5.043, 318.340, -9.675
2255, 5.061, 321.328, -9.743
2260, 5.080, 324.492, -9.863
2265, 5.099, 327.744, -9.999
2270, 5.117, 330.732, -10.038
2275, 5.136, 333.984, -10.159
2280, 5.155, 337.236, -10.267
2285, 5.173, 340.576, -10.394
2290, 5.192, 343.828, -10.482
2295, 5.211, 347.256, -10.616
2300, 5.229, 350.771, -10.766
2305, 5.248, 354.375, -10.933
2310, 5.267, 357.891, -11.054
2315, 5.285, 1.494, -11.194
2320, 5.304, 5.186, -11.348
2325, 5.323, 8.701, -11.432
2330, 5.342, 12.305, -11.538
2335, 5.360, 15.908, -11.632
2340, 5.379, 19.600, -11.748
2345, 5.398, 23.379, -11.880
2350, 5.417, 26.895, -11.915
2355, 5.435, 30.674, -12.030
2360, 5.454, 34.189, -12.052
2365, 5.473, 37.793, -12.103
2370, 5.492, 41.309, -12.120
2375, 5.510, 45.000, -12.190
2380, 5.529, 48.340, -12.142
2385, 5.548, 51.943, -12.181
2390, 5.567, 55.459, -12.191
2395, 5.586, 58.711, -12.115
2400, 5.604, 62.139, -12.102
2405, 5.623, 65.391, -12.034
2410, 5.642, 68.643, -11.972
2415, 5.661, 71.807, -11.889
2420, 5.680, 75.146, -11.869
2425, 5.699, 78.135, -11.739
2430, 5.717, 81.387, -11.704
2435, 5.736, 84.375, -11.589
2440, 5.755, 87.363, -11.484
2445, 5.774, 90.439, -11.417
2450, 5.793, 93.516, -11.357
2455, 5.812, 96.504, -11.272
2460, 5.830, 99.580, -11.225
2465, 5.849, 102.480, -11.124
2470, 5.868, 105.645, -11.118
2475, 5.887, 108.633, -11.056
2480, 5.906, 111.621, -11.000
2485, 5.925, 114.697, -10.976
2490, 5.943, 117.773, -10.956
2495, 5.962, 120.850, -10.936
2500, 5.981, 124.014, -10.947
2505, 6.000, 127.266, -10.985
2510, 6.019, 130.518, -11.017
2515, 6.038, 133.857, -11.077
2520, 6.057, 137.285, -11.158
2525, 6.075, 140.625, -11.204
2530, 6.094, 144.229, -11.330
2535, 6.113, 147.656, -11.388
2540, 6.132, 151.348, -11.525
2545, 6.151, 154.863, -11.591
2550, 6.170, 158.643, -11.740
2555, 6.189, 162.334, -11.845
2560, 6.207, 166.289, -12.022
2565, 6.226, 170.068, -12.130
2570, 6.245, 174.111, -12.311
2575, 6.264, 177.979, -12.420
2580, 6.283, 182.021, -12.574
2585, 6.302, 186.064, -12.715
2590, 6.320, 190.195, -12.871
2595, 6.339, 194.326, -13.013
2600, 6.358, 198.281, -13.085
2605, 6.377, 202.412, -13.207
2610, 6.396, 206.543, -13.317
2615, 6.414, 210.674, -13.418
2620, 6.433, 214.629, -13.454
2625, 6.452, 218.760, -13.543
2630, 6.471, 222.803, -13.595
2635, 6.490, 226.758, -13.616
2640, 6.508, 230.625, -13.604
2645, 6.527, 234.404, -13.569
2650, 6.546, 238.359, -13.591
2655, 6.565, 242.051, -13.527
2660, 6.583, 245.742, -13.470
2665, 6.602, 249.346, -13.389
2670, 6.621, 253.037, -13.343
2675, 6.640, 256.377, -13.191
2680, 6.658, 259.980, -13.135
2685, 6.677, 263.408, -13.030
2690, 6.696, 266.836, -12.933
2695, 6.715, 270.176, -12.819
2700, 6.733, 273.604, -12.741
2705, 6.752, 277.119, -12.699
2710, 6.771, 280.459, -12.604
2715, 6.789, 283.799, -12.520
2720, 6.808, 287.227, -12.470
2725, 6.827, 290.742, -12.451
2730, 6.845, 294.258, -12.436
2735, 6.864, 297.773, -12.423
2740, 6.883, 301.289, -12.410
2745, 6.901, 304.980, -12.454
2750, 6.920, 308.584, -12.466
2755, 6.939, 312.539, -12.587
2760, 6.957, 316.318, -12.644
2765, 6.976, 320.361, -12.778
2770, 6.994, 324.316, -12.871
2775, 7.013, 328.359, -12.984
2780, 7.032, 332.402, -13.088
2785, 7.050, 336.709, -13.264
2790, 7.069, 340.928, -13.398
2795, 7.087, 345.322, -13.575
2800, 7.106, 349.893, -13.792
2805, 7.124, 354.287, -13.934
2810, 7.143, 358.857, -14.118
2815, 7.161, 3.516, -14.315
2820, 7.180, 8.174, -14.492
2825, 7.198, 12.832, -14.652
2830, 7.217, 17.490, -14.800
2835, 7.235, 22.148, -14.933
2840, 7.254, 26.719, -15.026
2845, 7.272, 31.465, -15.168
2850, 7.291, 35.859, -15.183
2855, 7.309, 40.430, -15.254
2860, 7.327, 45.000, -15.318
2865, 7.346, 49.395, -15.320
2870, 7.364, 53.613, -15.267
2875, 7.382, 58.096, -15.303
2880, 7.401, 62.139, -15.196
2885, 7.419, 66.357, -15.153
2890, 7.437, 70.312, -15.031
2895, 7.456, 74.268, -14.919
2900, 7.474, 78.223, -14.820
2905, 7.492, 82.090, -14.697
2910, 7.510, 85.869, -14.563
2915, 7.529, 89.648, -14.438
2920, 7.547, 93.428, -14.329
2925, 7.565, 97.207, -14.227
2930, 7.583, 100.986, -14.133
2935, 7.601, 104.678, -14.020
2940, 7.620, 108.369, -13.918
2945, 7.638, 112.236, -13.880
2950, 7.656, 115.928, -13.791
2955, 7.674, 119.795, -13.765
2960, 7.692, 123.750, -13.768
2965, 7.710, 127.529, -13.717
2970, 7.728, 131.572, -13.752
2975, 7.746, 135.615, -13.787
2980, 7.764, 139.658, -13.816
2985, 7.782, 143.965, -13.930
2990, 7.800, 148.271, -14.030
2995, 7.818, 152.578, -14.121
3000, 7.836, 157.148, -14.289
3005, 7.854, 161.631, -14.411
3010, 7.872, 166.377, -14.610
3015, 7.890, 170.859, -14.704
3020, 7.908, 175.869, -14.958
3025, 7.926, 180.439, -15.048
3030, 7.944, 185.449, -15.272
3035, 7.961, 190.195, -15.390
3040, 7.979, 195.117, -15.550
3045, 7.997, 199.775, -15.618
3050, 8.015, 204.697, -15.762
3055, 8.033, 209.619, -15.892
3060, 8.050, 214.541, -16.009
3065, 8.068, 219.287, -16.060
3070, 8.086, 224.033, -16.108
3075, 8.103, 228.604, -16.094
3080, 8.121, 232.998, -16.023
3085, 8.139, 237.656, -16.050
3090, 8.156, 241.875, -15.927
3095, 8.174, 246.270, -15.876
3100, 8.191, 250.488, -15.772
3105, 8.209, 254.707, -15.675
3110, 8.226, 258.838, -15.565
3115, 8.244, 262.969, -15.462
3120, 8.261, 267.100, -15.369
3125, 8.279, 271.055, -15.226
3130, 8.296, 275.186, -15.153
3135, 8.314, 279.141, -15.032
3140, 8.331, 283.271, -14.976
3145, 8.348, 287.227, -14.871
3150, 8.366, 291.445, -14.859
3155, 8.383, 295.488, -14.792
3160, 8.400, 299.883, -14.842
3165, 8.418, 303.926, -14.776
3170, 8.435, 308.408, -14.855
3175, 8.452, 312.891, -14.929
3180, 8.469, 317.461, -15.022
3185, 8.486, 322.207, -15.163
3190, 8.503, 326.865, -15.264
3195, 8.521, 331.875, -15.465
3200, 8.538, 336.797, -15.623
3205, 8.555, 341.982, -15.848
3210, 8.572, 347.080, -16.026
3215, 8.589, 352.529, -16.299
3220, 8.606, 357.891, -16.521
3225, 8.623, 3.604, -16.830
3230, 8.640, 9.141, -17.060
3235, 8.657, 14.678, -17.265
3240, 8.674, 20.303, -17.481
3245, 8.690, 25.840, -17.650
3250, 8.707, 31.377, -17.803
3255, 8.724, 36.826, -17.914
3260, 8.741, 42.188, -17.987
3265, 8.758, 47.373, -17.993
3270, 8.774, 52.734, -18.066
3275, 8.791, 57.744, -18.016
3280, 8.808, 62.754, -17.964
3285, 8.824, 67.588, -17.866
3290, 8.841, 72.246, -17.725
3295, 8.858, 76.992, -17.620
3300, 8.874, 81.562, -17.470
3305, 8.891, 85.957, -17.274
3310, 8.907, 90.527, -17.157
3315, 8.924, 94.922, -16.992
3320, 8.940, 99.053, -16.760
3325, 8.956, 103.535, -16.658
3330, 8.973, 107.930, -16.541
3335, 8.989, 112.324, -16.432
3340, 9.006, 116.631, -16.306
3345, 9.022, 121.025, -16.218
3350, 9.038, 125.684, -16.223
3355, 9.054, 130.166, -16.171
3360, 9.071, 134.824, -16.179
3365, 9.087, 139.570, -16.218
3370, 9.103, 144.492, -16.304
3375, 9.119, 149.414, -16.385
3380, 9.135, 154.512, -16.514
3385, 9.151, 159.521, -16.603
3390, 9.167, 164.971, -16.824
3395, 9.183, 170.068, -16.912
3400, 9.199, 175.781, -17.190
3405, 9.215, 181.318, -17.384
3410, 9.231, 186.680, -17.504
3415, 9.247, 192.305, -17.701
3420, 9.263, 197.930, -17.877
3425, 9.278, 203.467, -18.010
3430, 9.294, 209.180, -18.186
3435, 9.310, 214.629, -18.263
3440, 9.326, 219.990, -18.306
3445, 9.341, 225.439, -18.369
3450, 9.357, 230.625, -18.344
3455, 9.373, 235.898, -18.354
3460, 9.388, 240.908, -18.273
3465, 9.404, 245.918, -18.204
3470, 9.419, 250.752, -18.083
3475, 9.435, 255.498, -17.948
